-68
-72
-75
-79
-84
-88
-93
-98
-104
-112
-119
-126
-134
-142
-149
-156
-162
-166
-169
-171
-173
-174
-173
-170
-164
-157
-146
-132
-116
-100
-84
-67
-48
-28
-10
8
24
37
53
66
76
84
92
101
106
108
109
110
112
110
109
107
106
106
104
101
97
96
96
96
92
89
88
86
85
84
84
83
84
83
82
80
80
80
80
80
78
74
73
72
70
66
64
62
64
62
61
61
64
66
66
64
60
58
58
58
57
55
55
56
56
53
50
48
49
50
48
46
48
48
49
44
40
38
38
40
38
37
36
37
38
37
36
33
32
32
32
28
29
28
24
24,
22
24
24
21
21
18
20
18
16
16
16
19
20
16
16
16
16
14
12
9
8
11
10
9
6
8
8
6
6
2
4
2
2
3
0
4
4
4
4
4
2
5
3
2
-2
-4
-4
-2
-2
-3
-6
-4
-6
-7
-7
-11
-9
-10
-10
-9
-11
-8
-7
-6
-6
-10
-9
-12
-16
-24
-31
-40
-48
-54
-55
-52
-48
-48
-53
-59
-62
-60
-52
-40
-24
-12
0
4
9
9
6
8
8
11
12
11
13
13
16
16
10
9
8
8
8
8
11
19
26
22
1
-44
-118
-220
-336
-442
-491
-456
-348
-198
-40
81
150
168
145
108
66
32
8
0
-3
0
-2
1
-2
-6
-10
-12
-13
-14
-14
-15
-16
-18
-20
-22
-23
-23
-26
-28
-30
-32
-32
-32
-32
-32
-32
-32
-36
-38
-41
-44
-48
-53
-59
-64
-70
-73
-77
-80
-88
-94
-102
-110
-119
-128
-135
-140
-144
-150
-152
-156
-159
-160
-160
-160
-155
-147
-137
-128
-116
-102
-86
-67
-48
-32
-15
2
19
37
51
64
76
86
96
102
106
112
116
118
118
117
117
118
118
118
118
117
116
115
112
107
104
103
102
101
98
97
96
96
92
88
86
85
84
82
80
80
80
76
74
71
72
72
68
68
70
68
68
68
65
69
68
68
66
64,
64
62
61
64
64
65
64
64
62
60
58
58
58
59
58
56
52
49
48
48
48
48
48
48
48
46
44
41
40
40
38
36
35
35
34
33
32
32
29
29
29
28
26
25
22
19
16
16
17
20
20
20
22
20
16
16
16
12
12
12
12
13
10
11
11
10
8
3
2
4
4
4
4
4
4
2
-4
-15
-22
-32
-39
-42
-40
-42
-42
-48
-56
-61
-62
-55
-42
-26
-8
6
16
20
20
18
16
16
17
21
24
22
21
21
21
18
13
12
12
13
13
16
21
32
38
32
4
-54
-142
-255
-374
-464
-488
-426
-300
-150
-16
81
134
148
134
106
74
44
21
6
-2
-5
-4
-2
-2
-4
-7
-8
-11
-13
-16
-16
-18
-16
-19
-18
-21
-21
-27
-28
-30
-32
-32
-32
-32
-35
-38
-42
-46
-48
-54
-56
-60
-62
-64
-68
-73
-80
-84
-89
-96
-100
-108
-114
-120
-127
-134
-139
-144
-148
-152
-154
-156
-156
-153
-149
-144
-138
-131
-122
-110
-95
-79
-61
-44
-25
-8
8
22
36
50
61
72
80
86
90
96
98
99
100
100
100
98
96
97
94
93
96
96
93
91
88
85
82
80
76
76
75
74
72
72
70
69
68
68
68
68
66
64
60
59
59
61
60
59
58
57
57,
57
56
56
58
60
60
60
59
59
58
56
54
53
55
56
57
58
57
57
56
56
56
55
54
54
52
50
48
48
44
45
44
46
42
42
41
38
38
34
35
36
34
32
32
32
32
30
28
26
26
24
24
21
20
20
18
18
17
16
16
13
8
-3
-12
-20
-26
-27
-26
-26
-29
-35
-42
-47
-46
-38
-26
-11
4
16
26
32
32
32
34
32
36
37
38
38
37
36
34
32
27
25
24
24
22
25
32
36
40
32
8
-46
-126
-231
-350
-450
-488
-444
-329
-176
-26
88
152
169
149
115
74
38
16
2
-3
-3
0
2
0
-4
-8
-12
-14
-15
-16
-16
-18
-19
-20
-20
-22
-23
-23
-23
-23
-24
-24
-27
-32
-36
-38
-40
-43
-46
-48
-48
-52
-56
-60
-64
-70
-75
-80
-88
-94
-100
-106
-112
-120
-131
-140
-150
-156
-160
-164
-164
-164
-163
-160
-156
-149
-141
-131
-118
-102
-84
-68
-47
-27
-7
14
32
45
60
70
81
92
100
103
112
114
115
118
114
116
116
116
118
117
114
114
112
112
108
104
104
100
101
99
96
90
90
88
88
88
88
88
86
84
82
80
80
80
80
81
82
82
80
77
76
76
76
76
75
74
74
72
70
69
69
68
68
64
60
59
60
60,
60
58
56
56
56
54
56
55
56
54
56
56
54
54
53
53
52
50
48
48
44
42
41
42
42
41
38
36
34
34
33
32
33
32
32
28
28
25
22
21
21
21
21
22
22
22
21
18
16
16
16
10
6
4
4
4
4
4
6
6
2
0
2
3
4
3
2
4
2
2
2
2
2
2
2
1
0
0
0
0
0
0
-2
-4
-5
-5
-8
-4
-5
-7
-10
-18
-24
-32
-40
-46
-48
-48
-48
-52
-56
-62
-64
-62
-54
-43
-25
-10
-2
4
6
11
12
11
10
10
12
12
10
9
9
10
8
4
4
4
4
2
8
16
19
12
-12
-60
-134
-236
-352
-455
-500
-464
-355
-200
-45
73
140
156
138
100
54
22
1
-8
-9
-7
-5
-6
-7
-11
-14
-16
-19
-20
-22
-23
-24
-26
-28
-28
-28
-30
-32
-32
-35
-36
-38
-40
-42
-44
-46
-48
-52
-54
-56
-58
-62
-64
-69
-72
-76
-80
-87
-92
-99
-106
-112
-120
-128
-138
-144
-152
-159
-164
-168
-172
-173
-174
-175
-172
-168
-160
-151
-141
-127
-110
-92
-72
-54
-36
-19
0
16
30
44
58
69
80
92
98
100
104
107
108
112
112
110
108
108
105
104
104
101
104
102
100
96
92
89
86
85
84
84
82
81
80
80
80,
80
76
73
72
70
68
68
67
68
68
68
68
68
66
66
65
65
64
61
64
64
64
64
62
60
60
58
60
57
58
57
56
54
54
54
53
52
49
48
49
50
50
49
49
48
48
44
42
41
40
41
42
42
42
42
40
39
37
36
37
39
39
36
36
33
32
30
29
28
27
26
26
24
21
18
18
18
20
20
19
19
18
19
18
18
18
16
16
12
11
10
10
12
12
12
12
12
12
10
8
6
6
6
6
8
8
4
3
-2
-5
-6
-6
-6
-6
-6
-7
-11
-11
-13
-11
-12
-7
-5
-5
-7
-7
-8
-7
-8
-8
-8
-10
-14
-21
-31
-41
-48
-51
-48
-46
-43
-44
-48
-55
-56
-51
-40
-28
-14
-4
2
4
9
12
16
16
16
13
12
10
12
10
8
9
9
12
10
8
5
6
10
16
18
6
-26
-86
-174
-286
-400
-478
-482
-406
-275
-123
9
96
138
145
124
92
60
29
10
-6
-9
-5
-3
-3
-4
-7
-11
-16
-19
-20
-20
-22
-24
-26
-27
-28
-30
-32
-32
-32
-32
-35
-34
-36
-40
-44
-43
-44
-45
-46
-46
-48
-52
-56
-59
-62
-68
-74
-80
-87
-92
-98
-104
-112
-120
-126
-133
-139
-143
-146
-149
-151
-154
-155
-154
-150
-144
-136
-128
-118
-106
-91,
-76
-59
-44
-28
-14
0
16
29
44
56
68
76
84
89
92
96
101
102
102
100
101
104
101
100
98
97
96
96
96
93
91
86
83
80
80
80
80
80
76
76
74
72
68
66
64
62
60
58
56
56
57
58
58
57
56
55
54
54
56
57
58
58
57
56
56
56
57
57
56
56
56
56
56
56
56
57
57
55
52
50
48
48
45
45
45
45
45
44
43
42
41
40
40
37
34
32
32
32
32
32
34
35
35
34
32
30
28
26
25
24
22
22
22
22
21
22
22
22
21
20
18
16
11
4
-8
-16
-24
-27
-28
-26
-26
-29
-36
-44
-48
-46
-38
-24
-10
4
16
22
28
32
35
36
37
37
36
34
32
30
29
28
26
25
25
25
24
24
26
32
38
40
28
-4
-62
-151
-267
-384
-469
-483
-412
-278
-132
-2
96
148
160
144
108
80
48
24
10
4
2
4
5
4
2
-2
-4
-6
-8
-10
-14
-16
-19
-21
-24
-24
-25
-25
-26
-27
-30
-35
-37
-40
-40
-42
-42
-42
-43
-46
-48
-54
-56
-58
-58
-62
-66
-71
-78
-86
-93
-102
-109
-116
-124
-131
-137
-142
-144
-148
-152
-152
-152
-151
-148
-142
-135
-125
-112
-96
-80
-62
-44
-26
-8
8
21
34
45
61,
73
82
90
98
105
109
112
114
116
116
115
112
109
109
108
108
106
102
99
97
96
92
91
90
90
89
86
84
82
83
82
83
82
82
82
80
80
76
74
73
73
73
73
73
72
72
68
66
65
65
66
68
68
68
68
66
64
64
64
64
64
64
62
60
57
56
54
52
52
51
51
52
52
52
51
51
50
48
43
40
41
41
41
39
36
36
36
34
33
33
34
34
32
29
26
26
26
26
24
24
23
24
24
22
26
22
24
22
19
20
16
16
16
12
10
9
8
2
-8
-15
-24
-31
-34
-34
-32
-35
-39
-45
-51
-54
-51
-40
-28
-13
1
12
20
24
25
24
26
24
24
25
25
28
26
26
24
20
19
16
10
10
10
18
22
29
24
-1
-46
-125
-231
-350
-455
-503
-464
-352
-201
-48
72
144
161
144
106
68
34
13
2
-3
-4
-2
-6
-7
-11
-11
-13
-14
-16
-20
-22
-21
-21
-23
-24
-26
-25
-28
-34
-35
-37
-35
-35
-38
-38
-43
-44
-48
-53
-58
-58
-62
-64
-69
-73
-78
-84
-90
-96
-102
-108
-116
-124
-132
-139
-146
-152
-158
-163
-166
-169
-171
-172
-172
-169
-164
-157
-148
-135
-120
-104
-88
-72
-54
-35
-16
2
20
33
49
65
76
84
90
96
102,
104
105
106
109
112
112
109
108
108
108
106
102
100
98
96
96
96
94
93
92
90
88
82
80
80
80
80
75
73
73
72
67
64
64
66
67
66
64
61
61
60
58
56
57
59
62
62
60
58
56
55
54
53
53
56
58
58
54
52
50
50
49
48
48
45
44
42
40
38
37
37
37
36
34
37
33
33
32
34
32
25
16
6
-4
-12
-18
-20
-20
-21
-24
-30
-36
-38
-34
-24
-11
2
20
32
40
44
46
48
44
44
44
48
49
48
44
42
40
38
34
34
32
29
26
32
40
40
36
20
-24
-96
-198
-315
-422
-478
-452
-349
-202
-47
76
149
169
152
117
72
38
16
6
5
8
8
6
2
-2
-7
-10
-12
-14
-13
-13
-14
-16
-16
-20
-23
-26
-28
-29
-30
-32
-34
-38
-40
-42
-44
-46
-48
-52
-55
-56
-58
-61
-64
-69
-74
-80
-87
-94
-100
-106
-112
-120
-130
-139
-147
-154
-160
-166
-170
-172
-172
-172
-169
-164
-157
-148
-137
-122
-108
-90
-70
-52
-34
-15
4
18
34
48
59
73
85
94
98
104
108
113
114
114
113
112
112
110
108
104
102
102
100
99
96
94
96
92
89
86
84
84
84
81
76
76
76
76
75
72
70
70
72
72
70
68
68
66,
65
62
60
60
61
60
57
56
56
58
57
54
52
52
54
53
51
49
48
48
48
48
48
48
48
48
45
42
42
42
42
39
36
34
34
34
32
32
32
32
32
29
26
24
22
22
22
21
24
20
20
18
16
18
19
17
18
18
20
17
12
11
6
4
-4
-13
-23
-31
-36
-36
-32
-32
-36
-44
-52
-56
-52
-40
-26
-10
3
17
25
28
33
30
32
29
28
32
28
28
27
24
25
20
20
18
19
16
16
16
21
26
26
20
-8
-60
-139
-240
-354
-436
-451
-388
-266
-115
20
114
160
157
132
90
48
18
-2
-11
-12
-9
-7
-7
-9
-12
-16
-20
-23
-26
-28
-30
-30
-31
-32
-35
-37
-40
-44
-47
-48
-50
-52
-52
-53
-54
-56
-56
-60
-63
-66
-68
-69
-71
-75
-79
-84
-89
-96
-103
-110
-117
-125
-133
-142
-148
-155
-160
-164
-168
-172
-174
-174
-172
-169
-166
-159
-152
-141
-128
-115
-99
-80
-62
-45
-29
-12
6
20
36
48
61
74
82
88
92
96
98
102
104
105
104
103
101
100
98
96
94
92
90
88
86
86
86
84
82
80
80
80
80
77
76
76
80
80
80
76
73
72
70
68
66
64
66
66
66
64
64
66
68
68
65
64
64
64
64
64
64
65
66,
65
62
58
56
55
53
51
48
48
50
50
50
48
48
49
48
45
42
41
41
40
37
34
33
34
36
34
32
30
28
27
24
24
24
24
25
24
22
24
21
21
20
18
20
16
16
16
13
17
16
16
16
16
16
16
8
6
5
8
8
6
8
5
8
6
2
2
0
2
2
-2
-2
-3
0
-2
-6
-7
-8
-6
-10
-16
-26
-36
-44
-48
-48
-45
-44
-48
-56
-64
-67
-64
-54
-39
-21
-8
4
8
12
12
10
12
16
19
21
24
24
22
22
20
16
16
12
16
16
16
18
24
28
28
17
-20
-88
-182
-296
-407
-470
-456
-367
-228
-86
35
109
140
138
120
89
58
28
10
-2
-6
-7
-8
-8
-9
-10
-11
-11
-12
-12
-12
-12
-14
-15
-16
-18
-19
-20
-20
-21
-22
-23
-24
-24
-28
-30
-34
-37
-40
-40
-44
-46
-48
-52
-54
-56
-59
-64
-69
-74
-80
-84
-90
-94
-100
-104
-108
-112
-118
-122
-127
-131
-132
-133
-132
-128
-125
-118
-109
-100
-87
-74
-61
-48
-35
-21
-10
8
25
40
52
64
74
82
86
88
92
97
100
102
102
101
98
96
93
92
92
92
90
88
86
84
84
82
81
80
80
77
76
74
72
70
70
69
68
66
66
66
66
65
64
61
62
62,
62
62
61
64
64
65
64
62
61
61
60
60
58
57
58
58
56
53
54
55
55
54
52
51
52
51
50
48
45
44
43
42
40
40
41
42
41
38
37
36
37
36
32
30
29
32
32
32
32
32
32
30
28
24
21
18
12
8
0
-10
-15
-19
-20
-22
-26
-32
-40
-47
-48
-42
-30
-18
0
16
28
36
40
41
40
38
40
42
43
40
38
36
34
33
32
30
29
28
26
22
27
32
40
43
28
-5
-70
-166
-284
-395
-461
-452
-364
-224
-80
42
118
154
154
129
98
62
35
18
8
6
6
6
5
4
1
-3
-5
-6
-8
-11
-13
-16
-16
-19
-20
-20
-20
-20
-21
-23
-26
-28
-31
-32
-32
-35
-35
-36
-36
-40
-45
-48
-54
-56
-60
-66
-71
-77
-84
-90
-96
-103
-109
-116
-122
-128
-134
-137
-140
-142
-144
-144
-144
-142
-138
-133
-125
-116
-104
-90
-74
-56
-39
-20
-2
16
28
38
51
64
75
82
90
98
104
107
107
108
109
110
110
109
107
106
104
101
97
96
96
93
91
89
86
84
86
85
82
80
80
80
80
77
76
74
76
76
74
72
70
72
72
70
68
68
67
66
64
60
59
58
59
59
57
56
56
55
53
50
50
50
53
52
52
52
48
49,
49
48
50
44
42
40
37
40
40
37
36
37
34
32
30
25
28
26
26
28
25
28
27
26
24
24
22
21
21
22
22
20
17
16
13
13
16
16
16
16
13
12
10
9
9
10
10
8
8
6
6
6
4
3
4
4
5
5
2
-3
-11
-20
-28
-36
-40
-41
-40
-42
-46
-53
-58
-60
-58
-50
-38
-22
-6
8
16
19
20
20
18
22
24
25
24
22
24
22
20
18
18
16
16
14
16
17
28
32
24
0
-48
-128
-234
-350
-447
-486
-440
-324
-172
-24
90
152
161
140
101
57
24
6
-4
-7
-5
-4
-6
-8
-12
-16
-20
-23
-24
-25
-24
-24
-25
-27
-29
-30
-32
-32
-32
-35
-36
-40
-42
-44
-46
-47
-48
-48
-52
-55
-58
-62
-64
-69
-72
-76
-80
-86
-92
-96
-103
-110
-116
-123
-131
-136
-142
-147
-152
-156
-158
-159
-159
-160
-159
-156
-148
-141
-128
-116
-102
-84
-68
-51
-34
-16
0
12
28
42
55
70
81
88
90
92
96
101
104
107
109
112
110
108
104
101
100
101
100
98
96
91
88
84
82
80
82
82
83
82
80
80
80
80
77
75
76
76
77
77
76
75
74
74
73
72
70
70
70
70
69
68
69
68
68
66
62
62
62
62
62
60
61
62,
62
60
57
57
56
56
53
50
50
50
50
50
48
48
49
49
48
44
41
42
42
40
36
34
34
33
32
29
28
28
28
27
24
24
24
26
26
24
22
21
20
20
16
16
12
12
12
10
13
12
8
8
6
8
8
4
3
2
5
5
1
1
0
2
2
2
-2
-2
1
0
-4
-8
-16
-28
-40
-48
-50
-48
-44
-42
-45
-52
-58
-62
-58
-48
-32
-20
-7
3
9
13
16
16
22
24
22
24
22
22
20
16
16
16
17
16
13
9
10
20
24
28
22
2
-46
-122
-224
-340
-432
-467
-422
-304
-152
-8
98
154
164
138
102
58
28
6
-4
-6
-4
-4
-4
-7
-11
-15
-19
-20
-22
-22
-23
-24
-25
-28
-30
-34
-37
-38
-39
-39
-40
-42
-44
-47
-48
-48
-51
-52
-52
-52
-55
-58
-62
-66
-69
-72
-77
-80
-86
-90
-94
-100
-107
-112
-120
-128
-136
-143
-149
-153
-156
-156
-156
-152
-148
-143
-138
-131
-123
-112
-101
-88
-71
-52
-31
-11
4
20
36
46
58
69
76
83
92
98
102
104
106
108
108
108
105
102
101
101
100
99
96
92
92
90
88
83
80
80
77
76
73
72
74
74
72
68
66
65
64
61
59
58
59
60
60
58
56
56
56
56
55
55
56
58,
58
54
52
50
52
56
56
56
56
55
54
50
48
46
44
44
43
42
41
40
41
40
40
40
40
43
42
40
41
36
34
32
33
32
29
32
30
32
27
24
20
16
16
18
20
20
17
18
17
17
16
16
17
19
18
16
12
12
16
13
13
10
16
12
12
10
8
8
8
6
6
4
3
1
0
0
-2
-4
-10
-20
-29
-38
-43
-44
-42
-40
-42
-48
-58
-64
-63
-55
-40
-24
-10
3
9
16
16
19
18
18
16
16
18
19
17
18
18
20
20
16
16
16
17
20
25
34
37
25
-4
-64
-153
-264
-377
-457
-464
-391
-264
-122
6
90
136
144
128
102
69
40
18
6
-2
-4
-3
-2
-2
-4
-7
-10
-13
-15
-16
-18
-19
-19
-20
-22
-24
-26
-28
-29
-30
-32
-32
-32
-35
-38
-40
-44
-46
-48
-51
-53
-55
-58
-61
-64
-68
-72
-76
-80
-87
-94
-100
-106
-112
-117
-122
-128
-132
-134
-138
-139
-139
-138
-136
-135
-133
-128
-119
-107
-94
-80
-68
-54
-40
-24
-10
6
22
34
48
58
66
73
82
90
93
96
98
100
101
101
100
98
97
96
93
89
88
88
89
88
86
83
82
81
80
77
75
76
76
76
75
74
75
76
74
72
70
70
72
73
73
72
70
72,
72
70
66
65
66
68
67
66
65
66
64
61
56
56
57
58
58
56
53
53
53
53
52
51
51
52
51
48
46
44
43
41
40
42
42
41
41
43
40
36
32
28
30
29
30
30
29
28
28
28
29
29
27
24
20
18
17
16
16
16
16
16
13
12
11
10
10
10
12
12
10
6
-2
-13
-24
-32
-36
-36
-35
-36
-39
-46
-52
-54
-48
-40
-27
-15
-2
9
17
22
25
25
24
25
25
27
28
27
27
28
28
28
24
24
18
16
16
18
24
29
26
5
-35
-106
-204
-322
-427
-480
-454
-354
-206
-56
61
133
156
144
110
74
38
16
1
-5
-5
-3
-2
-2
-4
-8
-14
-16
-20
-23
-24
-24
-25
-26
-27
-28
-32
-35
-38
-40
-42
-43
-44
-44
-44
-44
-47
-51
-54
-58
-62
-66
-70
-73
-76
-80
-85
-88
-92
-96
-101
-109
-118
-126
-134
-141
-147
-152
-156
-159
-160
-162
-164
-164
-162
-156
-150
-140
-128
-112
-96
-80
-64
-48
-30
-12
4
20
38
54
70
81
89
93
98
104
112
116
118
118
118
117
115
112
112
112
112
110
106
104
102
98
96
92
90
88
86
85
84
82
83
84
84
81
80
80
80
80
80
76
76
76
74
70
68
68
69
68
67
65
65
66,
68
68
66
65
65
65
64
60
59
60
61
58
54
52
52
52
52
51
50
50
49
48
44
43
43
44
44
42
40
37
36
34
32
34
32
33
34
32
33
32
25
24
22
24
23
20
20
18
22
22
24
20
20
22
21
20
16
16
16
16
16
16
16
18
16
16
12
12
16
13
14
10
11
16
12
12
10
8
4
2
0
-2
-2
-2
-2
-3
-3
-3
-2
-2
0
1
-3
-2
-5
-7
-7
-7
-9
-14
-23
-32
-43
-48
-50
-48
-46
-47
-52
-60
-64
-64
-56
-44
-30
-16
-6
-2
3
6
9
10
8
8
8
12
12
8
8
6
8
6
4
0
0
5
10
16
20
16
-5
-51
-124
-226
-344
-444
-485
-447
-334
-182
-36
74
138
154
133
98
56
28
6
-4
-6
-6
-4
-4
-4
-7
-10
-12
-16
-19
-23
-26
-28
-28
-27
-27
-28
-30
-30
-32
-32
-34
-35
-36
-37
-40
-42
-44
-46
-48
-51
-54
-56
-60
-63
-67
-72
-76
-80
-85
-92
-99
-106
-112
-120
-126
-132
-138
-144
-148
-152
-154
-156
-157
-156
-155
-151
-147
-140
-130
-118
-104
-90
-73
-54
-35
-16
0
16
32
48
61
74
84
93
100
105
108
110
112
113
114
114
114
114
115
112
108
104
100
100
98
96
94
92
90,
88
84
80
80
80
77
77
74
72
72
72
72
69
68
70
72
72
69
68
69
70
69
67
65
65
66
66
65
61
60
60
61
60
59
59
60
60
59
57
56
58
58
56
53
52
52
52
48
45
44
44
46
45
42
40
40
40
38
35
33
33
35
35
33
34
32
28
28
26
29
26
26
26
25
28
28
25
24
24
24
24
22
19
18
20
18
17
13
12
13
12
13
11
12
16
14
13
10
16
14
12
10
8
8
6
6
6
8
8
7
6
6
6
2
4
1
-2
-4
-7
-12
-20
-28
-32
-36
-36
-36
-35
-38
-46
-56
-62
-62
-52
-38
-25
-8
4
8
13
16
18
17
18
16
18
24
24
24
20
18
18
16
16
16
16
19
24
32
32
28
10
-36
-111
-213
-331
-430
-472
-436
-327
-182
-46
62
128
149
144
114
84
52
27
11
3
0
0
2
1
0
-5
-9
-12
-16
-16
-19
-20
-20
-20
-22
-24
-28
-29
-29
-31
-32
-34
-36
-35
-36
-38
-40
-44
-48
-52
-54
-57
-57
-59
-62
-67
-74
-80
-85
-88
-92
-98
-104
-110
-116
-122
-128
-135
-140
-144
-148
-150
-148
-144
-141
-138
-134
-130
-122
-112
-100
-86
-70
-54
-38
-24
-12
3
20
37
52
64
74
81
86,
90
92
96
98
102
101
102
104
101
98
93
90
92
90
90
86